Start Time, Mon Feb 21 2022 15:08:06 GMT+0000 (GMT)
Energy calibration,  Offset:-0.8944737974038629, Slope: 0.6777130311079765
Live Time (s), 1204602.5
Real Time (s), 1209121.82
Elapsed Computational, 0
Spectrum
Channel, Energy (keV), Counts
1, 0.2167607662958864, 332
2, 0.4609522648120902, 112746
3, 1.1386652959200667, 243470
4, 1.8163783270280431, 43607
5, 2.4940913581360196, 10564
6, 3.1718043892439964, 16856
7, 3.8495174203519729, 20782
8, 4.5272304514599497, 27604
9, 5.2049434825679262, 31662
10, 5.8826565136759026, 31969
11, 6.5603695447838790, 31545
12, 7.2380825758918563, 30676
13, 7.9157956069998319, 44681
14, 8.5935086381078083, 144204
15, 9.2712216692157838, 84017
16, 9.9489347003237611, 35603
17, 10.6266477314317385, 16842
18, 11.3043607625397140, 10664
19, 11.9820737936476913, 5934
20, 12.6597868247556669, 5097
21, 13.3374998558636442, 4775
22, 14.0152128869716197, 4466
23, 14.6929259180795970, 4075
24, 15.3706389491875743, 4134
25, 16.0483519802955534, 3886
26, 16.7260650114035272, 3788
27, 17.4037780425115045, 3709
28, 18.0814910736194818, 3478
29, 18.7592041047274591, 3512
30, 19.4369171358354329, 3437
31, 20.1146301669434102, 3342
32, 20.7923431980513875, 3301
33, 21.4700562291593648, 3214
34, 22.1477692602673422, 3113
35, 22.8254822913753159, 3129
36, 23.5031953224832932, 3120
37, 24.1809083535912706, 3025
38, 24.8586213846992479, 2945
39, 25.5363344158072216, 2999
40, 26.2140474469151989, 2939
41, 26.8917604780231763, 2872
42, 27.5694735091311536, 2913
43, 28.2471865402391309, 2720
44, 28.9248995713471047, 2758
45, 29.6026126024550820, 2731
46, 30.2803256335630593, 2775
47, 30.9580386646710366, 2710
48, 31.6357516957790139, 2697
49, 32.3134647268869912, 2757
50, 32.9911777579949685, 2617
51, 33.6688907891029388, 2568
52, 34.3466038202109161, 2650
53, 35.0243168513188934, 2626
54, 35.7020298824268707, 2608
55, 36.3797429135348480, 2655
56, 37.0574559446428253, 2541
57, 37.7351689757508026, 2501
58, 38.4128820068587800, 2514
59, 39.0905950379667573, 2501
60, 39.7683080690747275, 2435
61, 40.4460211001827048, 2396
62, 41.1237341312906821, 2388
63, 41.8014471623986594, 2459
64, 42.4791601935066367, 2426
65, 43.1568732246146141, 2347
66, 43.8345862557225914, 2343
67, 44.5122992868305687, 2423
68, 45.1900123179385460, 2315
69, 45.8677253490465162, 2421
70, 46.5454383801544935, 2381
71, 47.2231514112624708, 2355
72, 47.9008644423704482, 2371
73, 48.5785774734784255, 2360
74, 49.2562905045864028, 2272
75, 49.9340035356943801, 2317
76, 50.6117165668023574, 2334
77, 51.2894295979103347, 2225
78, 51.9671426290183049, 2305
79, 52.6448556601262823, 2305
80, 53.3225686912342596, 2375
81, 54.0002817223422369, 2232
82, 54.6779947534502142, 2305
83, 55.3557077845581915, 2274
84, 56.0334208156661688, 2312
85, 56.7111338467741461, 2258
86, 57.3888468778821235, 2253
87, 58.0665599089900937, 2277
88, 58.7442729400980710, 2291
89, 59.4219859712060483, 2270
90, 60.0996990023140256, 2317
91, 60.7774120334220029, 2342
92, 61.4551250645299802, 2195
93, 62.1328380956379576, 2340
94, 62.8105511267459349, 2280
95, 63.4882641578539051, 2419
96, 64.1659771889618895, 2388
97, 64.8436902200698597, 2327
98, 65.5214032511778441, 2432
99, 66.1991162822858143, 2464
100, 66.8768293133937988, 2226
101, 67.5545423445017690, 2346
102, 68.2322553756097392, 2301
103, 68.9099684067177236, 2370
104, 69.5876814378256938, 2440
105, 70.2653944689336782, 2413
106, 70.9431075000416484, 2444
107, 71.6208205311496329, 2731
108, 72.2985335622576031, 3248
109, 72.9762465933655875, 2600
110, 73.6539596244735577, 2885
111, 74.3316726555815279, 4212
112, 75.0093856866895123, 3003
113, 75.6870987177974825, 2542
114, 76.3648117489054670, 2882
115, 77.0425247800134372, 2756
116, 77.7202378111214216, 2371
117, 78.3979508422293918, 2474
118, 79.0756638733373762, 2466
119, 79.7533769044453464, 2510
120, 80.4310899355533166, 2388
121, 81.1088029666613011, 2465
122, 81.7865159977692713, 2446
123, 82.4642290288772557, 2504
124, 83.1419420599852259, 2674
125, 83.8196550910932103, 3294
126, 84.4973681222011805, 3561
127, 85.1750811533091650, 2718
128, 85.8527941844171352, 2711
129, 86.5305072155251054, 3067
130, 87.2082202466330898, 2868
131, 87.8859332777410600, 2502
132, 88.5636463088490444, 2521
133, 89.2413593399570146, 2666
134, 89.9190723710649991, 2498
135, 90.5967854021729693, 2426
136, 91.2744984332809537, 2564
137, 91.9522114643889239, 2561
138, 92.6299244954968941, 2677
139, 93.3076375266048785, 2623
140, 93.9853505577128487, 2579
141, 94.6630635888208332, 2667
142, 95.3407766199288034, 2655
143, 96.0184896510367878, 2609
144, 96.6962026821447580, 2732
145, 97.3739157132527424, 2653
146, 98.0516287443607126, 2749
147, 98.7293417754686828, 2727
148, 99.4070548065766673, 2770
149, 100.0847678376846375, 2774
150, 100.7624808687926219, 2731
151, 101.4401938999005921, 2771
152, 102.1179069310085765, 2902
153, 102.7956199621165467, 2852
154, 103.4733329932245312, 2815
155, 104.1510460243325014, 2870
156, 104.8287590554404716, 3034
157, 105.5064720865484560, 2934
158, 106.1841851176564262, 2936
159, 106.8618981487644106, 3008
160, 107.5396111798723808, 2915
161, 108.2173242109803653, 3127
162, 108.8950372420883355, 3011
163, 109.5727502731963199, 3100
164, 110.2504633043042901, 3094
165, 110.9281763354122603, 3128
166, 111.6058893665202447, 3091
167, 112.2836023976282149, 3030
168, 112.9613154287361994, 3162
169, 113.6390284598441696, 3167
170, 114.3167414909521540, 3121
171, 114.9944545220601242, 3231
172, 115.6721675531681086, 3280
173, 116.3498805842760788, 3283
174, 117.0275936153840490, 3337
175, 117.7053066464920335, 3306
176, 118.3830196776000037, 3200
177, 119.0607327087079881, 3274
178, 119.7384457398159583, 3200
179, 120.4161587709239427, 3361
180, 121.0938718020319129, 3276
181, 121.7715848331398973, 3611
182, 122.4492978642478676, 3437
183, 123.1270108953558378, 3393
184, 123.8047239264638222, 3357
185, 124.4824369575717924, 3426
186, 125.1601499886797768, 3425
187, 125.8378630197877470, 3346
188, 126.5155760508957314, 3479
189, 127.1932890820037017, 3494
190, 127.8710021131116719, 3615
191, 128.5487151442196705, 3427
192, 129.2264281753276407, 3486
193, 129.9041412064356109, 3448
194, 130.5818542375435811, 3618
195, 131.2595672686515513, 3428
196, 131.9372802997595500, 3454
197, 132.6149933308675202, 3371
198, 133.2927063619754904, 3478
199, 133.9704193930834606, 3640
200, 134.6481324241914592, 3544
201, 135.3258454552994294, 3532
202, 136.0035584864073996, 3696
203, 136.6812715175153699, 3603
204, 137.3589845486233401, 3633
205, 138.0366975797313387, 3539
206, 138.7144106108393089, 3666
207, 139.3921236419472791, 3652
208, 140.0698366730552493, 3619
209, 140.7475497041632480, 3549
210, 141.4252627352712182, 3640
211, 142.1029757663791884, 3623
212, 142.7806887974871586, 3618
213, 143.4584018285951288, 3610
214, 144.1361148597031274, 3597
215, 144.8138278908110976, 3692
216, 145.4915409219190678, 3731
217, 146.1692539530270381, 3656
218, 146.8469669841350367, 3616
219, 147.5246800152430069, 3682
220, 148.2023930463509771, 3630
221, 148.8801060774589473, 3746
222, 149.5578191085669175, 3654
223, 150.2355321396749162, 3876
224, 150.9132451707828864, 3636
225, 151.5909582018908566, 3629
226, 152.2686712329988268, 3624
227, 152.9463842641068254, 3787
228, 153.6240972952147956, 3672
229, 154.3018103263227658, 3649
230, 154.9795233574307360, 3653
231, 155.6572363885387063, 3610
232, 156.3349494196467049, 3698
233, 157.0126624507546751, 3675
234, 157.6903754818626453, 3587
235, 158.3680885129706155, 3731
236, 159.0458015440786141, 3735
237, 159.7235145751865844, 3568
238, 160.4012276062945546, 3701
239, 161.0789406374025248, 3707
240, 161.7566536685104950, 3586
241, 162.4343666996184936, 3782
242, 163.1120797307264638, 3612
243, 163.7897927618344340, 3606
244, 164.4675057929424042, 3574
245, 165.1452188240504029, 3665
246, 165.8229318551583731, 3532
247, 166.5006448862663433, 3561
248, 167.1783579173743135, 3696
249, 167.8560709484822837, 3628
250, 168.5337839795902823, 3682
251, 169.2114970106982526, 3648
252, 169.8892100418062228, 3607
253, 170.5669230729141930, 3532
254, 171.2446361040221916, 3639
255, 171.9223491351301618, 3700
256, 172.6000621662381320, 3591
257, 173.2777751973461022, 3638
258, 173.9554882284540724, 3490
259, 174.6332012595620711, 3584
260, 175.3109142906700413, 3522
261, 175.9886273217780115, 3568
262, 176.6663403528859817, 3551
263, 177.3440533839939803, 3616
264, 178.0217664151019505, 3597
265, 178.6994794462099208, 3628
266, 179.3771924773178910, 3528
267, 180.0549055084258612, 3520
268, 180.7326185395338598, 3523
269, 181.4103315706418300, 3556
270, 182.0880446017498002, 3572
271, 182.7657576328577704, 3482
272, 183.4434706639657691, 3596
273, 184.1211836950737393, 3600
274, 184.7988967261817095, 3553
275, 185.4766097572896797, 3503
276, 186.1543227883976499, 3564
277, 186.8320358195056485, 3462
278, 187.5097488506136187, 3362
279, 188.1874618817215890, 3341
280, 188.8651749128295592, 3490
281, 189.5428879439375578, 3559
282, 190.2206009750455280, 3403
283, 190.8983140061534982, 3511
284, 191.5760270372614684, 3352
285, 192.2537400683694386, 3377
286, 192.9314530994774373, 3426
287, 193.6091661305854075, 3306
288, 194.2868791616933777, 3298
289, 194.9645921928013479, 3365
290, 195.6423052239093465, 3221
291, 196.3200182550173167, 3350
292, 196.9977312861252869, 3265
293, 197.6754443172332572, 3517
294, 198.3531573483412274, 3443
295, 199.0308703794492260, 3536
296, 199.7085834105571962, 3337
297, 200.3862964416651664, 3323
298, 201.0640094727731366, 3240
299, 201.7417225038811353, 3276
300, 202.4194355349891055, 3256
301, 203.0971485660970757, 3227
302, 203.7748615972050459, 3181
303, 204.4525746283130161, 3306
304, 205.1302876594210147, 3157
305, 205.8080006905289849, 3210
306, 206.4857137216369551, 3237
307, 207.1634267527449254, 3192
308, 207.8411397838529240, 3181
309, 208.5188528149608942, 3107
310, 209.1965658460688644, 3123
311, 209.8742788771768346, 3182
312, 210.5519919082848048, 3127
313, 211.2297049393928035, 3089
314, 211.9074179705007737, 3140
315, 212.5851310016087439, 3007
316, 213.2628440327167141, 3240
317, 213.9405570638247127, 3075
318, 214.6182700949326829, 3033
319, 215.2959831260406531, 3085
320, 215.9736961571486233, 3061
321, 216.6514091882565936, 3066
322, 217.3291222193645922, 2970
323, 218.0068352504725624, 2979
324, 218.6845482815805326, 2975
325, 219.3622613126885028, 3044
326, 220.0399743437965014, 2923
327, 220.7176873749044717, 2951
328, 221.3954004060124419, 2904
329, 222.0731134371204121, 3010
330, 222.7508264682283823, 3056
331, 223.4285394993363809, 2903
332, 224.1062525304443511, 2975
333, 224.7839655615523213, 2843
334, 225.4616785926602915, 2851
335, 226.1393916237682902, 2863
336, 226.8171046548762604, 2842
337, 227.4948176859842306, 2882
338, 228.1725307170922008, 2867
339, 228.8502437482001710, 2865
340, 229.5279567793081696, 2895
341, 230.2056698104161399, 2914
342, 230.8833828415241101, 2890
343, 231.5610958726320803, 2765
344, 232.2388089037400789, 2840
345, 232.9165219348480491, 2858
346, 233.5942349659560193, 2712
347, 234.2719479970639895, 2709
348, 234.9496610281719597, 2832
349, 235.6273740592799584, 2837
350, 236.3050870903879286, 2762
351, 236.9828001214958988, 2816
352, 237.6605131526038690, 2801
353, 238.3382261837118676, 2686
354, 239.0159392148198378, 2732
355, 239.6936522459278081, 2668
356, 240.3713652770357783, 2788
357, 241.0490783081437485, 3014
358, 241.7267913392517471, 3397
359, 242.4045043703597173, 2905
360, 243.0822174014676875, 2617
361, 243.7599304325756577, 2694
362, 244.4376434636836564, 2693
363, 245.1153564947916266, 2655
364, 245.7930695258995968, 2634
365, 246.4707825570075670, 2606
366, 247.1484955881155372, 2582
367, 247.8262086192235358, 2623
368, 248.5039216503315060, 2658
369, 249.1816346814394763, 2561
370, 249.8593477125474465, 2562
371, 250.5370607436554451, 2614
372, 251.2147737747634153, 2638
373, 251.8924868058713855, 2648
374, 252.5701998369793557, 2663
375, 253.2479128680873259, 2493
376, 253.9256258991953246, 2624
377, 254.6033389303032948, 2526
378, 255.2810519614112650, 2510
379, 255.9587649925192636, 2474
380, 256.6364780236272054, 2549
381, 257.3141910547352040, 2552
382, 257.9919040858432027, 2547
383, 258.6696171169511445, 2523
384, 259.3473301480591431, 2554
385, 260.0250431791670849, 2413
386, 260.7027562102750835, 2409
387, 261.3804692413830821, 2452
388, 262.0581822724910239, 2383
389, 262.7358953035990226, 2282
390, 263.4136083347069643, 2453
391, 264.0913213658149630, 2397
392, 264.7690343969229616, 2518
393, 265.4467474280309034, 2393
394, 266.1244604591389020, 2417
395, 266.8021734902468438, 2333
396, 267.4798865213548424, 2366
397, 268.1575995524628411, 2428
398, 268.8353125835707829, 2430
399, 269.5130256146787815, 2361
400, 270.1907386457867801, 2339
401, 270.8684516768947219, 2388
402, 271.5461647080027205, 2225
403, 272.2238777391106623, 2258
404, 272.9015907702186610, 2235
405, 273.5793038013266596, 2253
406, 274.2570168324346014, 2273
407, 274.9347298635426000, 2323
408, 275.6124428946505418, 2217
409, 276.2901559257585404, 2356
410, 276.9678689568665391, 2327
411, 277.6455819879744809, 2338
412, 278.3232950190824795, 2320
413, 279.0010080501904213, 2251
414, 279.6787210812984199, 2116
415, 280.3564341124064185, 2281
416, 281.0341471435143603, 2193
417, 281.7118601746223590, 2215
418, 282.3895732057303576, 2158
419, 283.0672862368382994, 2185
420, 283.7449992679462980, 2196
421, 284.4227122990542398, 2219
422, 285.1004253301622384, 2150
423, 285.7781383612702371, 2146
424, 286.4558513923781788, 2136
425, 287.1335644234861775, 2137
426, 287.8112774545941193, 2059
427, 288.4889904857021179, 2069
428, 289.1667035168101165, 2161
429, 289.8444165479180583, 2050
430, 290.5221295790260569, 2085
431, 291.1998426101339987, 2129
432, 291.8775556412419974, 2152
433, 292.5552686723499960, 2126
434, 293.2329817034579378, 2186
435, 293.9106947345659364, 2305
436, 294.5884077656739350, 3270
437, 295.2661207967818768, 3034
438, 295.9438338278898755, 2168
439, 296.6215468589978173, 1960
440, 297.2992598901058159, 2072
441, 297.9769729212138145, 2049
442, 298.6546859523217563, 2078
443, 299.3323989834297549, 1950
444, 300.0101120145376967, 1940
445, 300.6878250456456954, 2028
446, 301.3655380767536940, 1980
447, 302.0432511078616358, 1958
448, 302.7209641389696344, 1992
449, 303.3986771700775762, 1978
450, 304.0763902011855748, 1902
451, 304.7541032322935735, 1931
452, 305.4318162634015152, 2010
453, 306.1095292945095139, 1968
454, 306.7872423256175125, 1925
455, 307.4649553567254543, 1886
456, 308.1426683878334529, 1913
457, 308.8203814189413947, 1893
458, 309.4980944500493933, 1846
459, 310.1758074811573920, 1867
460, 310.8535205122653338, 1871
461, 311.5312335433733324, 1868
462, 312.2089465744812742, 1813
463, 312.8866596055892728, 1824
464, 313.5643726366972714, 1863
465, 314.2420856678052132, 1863
466, 314.9197986989132119, 1870
467, 315.5975117300211537, 1841
468, 316.2752247611291523, 1828
469, 316.9529377922371509, 1813
470, 317.6306508233450927, 1809
471, 318.3083638544530913, 1796
472, 318.9860768855610900, 1835
473, 319.6637899166690318, 1816
474, 320.3415029477770304, 1861
475, 321.0192159788849722, 1768
476, 321.6969290099929708, 1790
477, 322.3746420411009694, 1811
478, 323.0523550722089112, 1799
479, 323.7300681033169099, 1713
480, 324.4077811344248516, 1791
481, 325.0854941655328503, 1729
482, 325.7632071966408489, 1839
483, 326.4409202277487907, 1747
484, 327.1186332588567893, 1702
485, 327.7963462899647311, 1750
486, 328.4740593210727297, 1733
487, 329.1517723521807284, 1704
488, 329.8294853832886702, 1775
489, 330.5071984143966688, 1803
490, 331.1849114455046674, 1684
491, 331.8626244766126092, 1819
492, 332.5403375077206078, 2177
493, 333.2180505388285496, 5007
494, 333.8957635699365483, 6740
495, 334.5734766010445469, 1682
496, 335.2511896321524887, 1616
497, 335.9289026632604873, 1664
498, 336.6066156943684291, 1623
499, 337.2843287254764277, 1610
500, 337.9620417565844264, 1723
501, 338.6397547876923682, 1675
502, 339.3174678188003668, 1650
503, 339.9951808499083086, 1608
504, 340.6728938810163072, 1664
505, 341.3506069121243058, 1698
506, 342.0283199432322476, 1634
507, 342.7060329743402463, 1605
508, 343.3837460054482449, 1580
509, 344.0614590365561867, 1629
510, 344.7391720676641853, 1633
511, 345.4168850987721271, 1568
512, 346.0945981298801257, 1558
513, 346.7723111609881244, 1520
514, 347.4500241920960661, 1505
515, 348.1277372232040648, 1547
516, 348.8054502543120066, 1502
517, 349.4831632854200052, 1511
518, 350.1608763165280038, 1542
519, 350.8385893476359456, 2020
520, 351.5163023787439442, 3726
521, 352.1940154098519429, 3146
522, 352.8717284409598847, 1683
523, 353.5494414720678833, 1464
524, 354.2271545031758251, 1493
525, 354.9048675342838237, 1493
526, 355.5825805653918223, 1493
527, 356.2602935964997641, 1449
528, 356.9380066276077628, 1449
529, 357.6157196587157046, 1416
530, 358.2934326898237032, 1487
531, 358.9711457209317018, 1451
532, 359.6488587520396436, 1442
533, 360.3265717831476422, 1394
534, 361.0042848142555840, 1405
535, 361.6819978453635827, 1439
536, 362.3597108764715813, 1384
537, 363.0374239075795231, 1433
538, 363.7151369386875217, 1369
539, 364.3928499697955203, 1425
540, 365.0705630009034621, 1383
541, 365.7482760320114608, 1338
542, 366.4259890631194025, 1331
543, 367.1037020942274012, 1367
544, 367.7814151253353998, 1341
545, 368.4591281564433416, 1343
546, 369.1368411875513402, 1341
547, 369.8145542186592820, 1367
548, 370.4922672497672806, 1269
549, 371.1699802808752793, 1372
550, 371.8476933119832211, 1361
551, 372.5254063430912197, 1318
552, 373.2031193741991615, 1290
553, 373.8808324053071601, 1321
554, 374.5585454364151587, 1327
555, 375.2362584675231005, 1324
556, 375.9139714986310992, 1354
557, 376.5916845297390978, 1325
558, 377.2693975608470396, 1302
559, 377.9471105919550382, 1281
560, 378.6248236230629800, 1361
561, 379.3025366541709786, 1317
562, 379.9802496852789773, 1274
563, 380.6579627163869191, 1294
564, 381.3356757474949177, 1308
565, 382.0133887786028595, 1311
566, 382.6911018097108581, 1265
567, 383.3688148408188567, 1297
568, 384.0465278719267985, 1289
569, 384.7242409030347972, 1239
570, 385.4019539341427389, 1304
571, 386.0796669652507376, 1288
572, 386.7573799963587362, 1257
573, 387.4350930274666780, 1190
574, 388.1128060585746766, 1216
575, 388.7905190896826753, 1189
576, 389.4682321207906170, 1275
577, 390.1459451518986157, 1199
578, 390.8236581830065575, 1191
579, 391.5013712141145561, 1220
580, 392.1790842452225547, 1242
581, 392.8567972763304965, 1162
582, 393.5345103074384951, 1156
583, 394.2122233385464369, 1156
584, 394.8899363696544356, 1235
585, 395.5676494007624342, 1239
586, 396.2453624318703760, 1190
587, 396.9230754629783746, 1203
588, 397.6007884940863164, 1184
589, 398.2785015251943150, 1197
590, 398.9562145563023137, 1195
591, 399.6339275874102555, 1124
592, 400.3116406185182541, 1190
593, 400.9893536496262527, 1159
594, 401.6670666807341945, 1139
595, 402.3447797118421931, 1141
596, 403.0224927429501349, 1129
597, 403.7002057740581336, 1118
598, 404.3779188051661322, 1105
599, 405.0556318362740740, 1066
600, 405.7333448673820726, 1130
601, 406.4110578984900144, 1136
602, 407.0887709295980130, 1081
603, 407.7664839607060117, 1127
604, 408.4441969918139534, 1063
605, 409.1219100229219521, 1110
606, 409.7996230540298939, 1112
607, 410.4773360851378925, 1123
608, 411.1550491162458911, 1155
609, 411.8327621473538329, 1047
610, 412.5104751784618315, 1059
611, 413.1881882095698302, 1078
612, 413.8659012406777720, 1127
613, 414.5436142717857706, 1045
614, 415.2213273028937124, 1046
615, 415.8990403340017110, 1116
616, 416.5767533651097096, 1045
617, 417.2544663962176514, 1132
618, 417.9321794273256501, 1067
619, 418.6098924584335919, 1033
620, 419.2876054895415905, 1101
621, 419.9653185206495891, 1132
622, 420.6430315517575309, 1105
623, 421.3207445828655295, 1054
624, 421.9984576139734713, 1070
625, 422.6761706450814700, 1030
