Start Time, Mon Feb 21 2022 15:08:06 GMT+0000 (GMT)
Energy calibration,  Offset:-0.8944737974038629, Slope: 0.6777130311079765
Live Time (s), 1204602.5
Real Time (s), 1209121.82
Elapsed Computational, 0
Spectrum
Channel, Energy (keV), Counts
1, 0.2167607662958864, 548
2, 0.4609522648120902, 252440
3, 1.1386652959200667, 355732
4, 1.8163783270280431, 35744
5, 2.4940913581360196, 9180
6, 3.1718043892439964, 22465
7, 3.8495174203519729, 26966
8, 4.5272304514599497, 32992
9, 5.2049434825679262, 35433
10, 5.8826565136759026, 35619
11, 6.5603695447838790, 35087
12, 7.2380825758918563, 34540
13, 7.9157956069998319, 47063
14, 8.5935086381078083, 143154
15, 9.2712216692157838, 87322
16, 9.9489347003237611, 39270
17, 10.6266477314317385, 20284
18, 11.3043607625397140, 13911
19, 11.9820737936476913, 8911
20, 12.6597868247556669, 7940
21, 13.3374998558636442, 7634
22, 14.0152128869716197, 7131
23, 14.6929259180795970, 6789
24, 15.3706389491875743, 6709
25, 16.0483519802955534, 6325
26, 16.7260650114035272, 6058
27, 17.4037780425115045, 6093
28, 18.0814910736194818, 5852
29, 18.7592041047274591, 5968
30, 19.4369171358354329, 5632
31, 20.1146301669434102, 5524
32, 20.7923431980513875, 5349
33, 21.4700562291593648, 5377
34, 22.1477692602673422, 5255
35, 22.8254822913753159, 5135
36, 23.5031953224832932, 5049
37, 24.1809083535912706, 4950
38, 24.8586213846992479, 4870
39, 25.5363344158072216, 4853
40, 26.2140474469151989, 4822
41, 26.8917604780231763, 4759
42, 27.5694735091311536, 4767
43, 28.2471865402391309, 4654
44, 28.9248995713471047, 4636
45, 29.6026126024550820, 4405
46, 30.2803256335630593, 4458
47, 30.9580386646710366, 4350
48, 31.6357516957790139, 4314
49, 32.3134647268869912, 4452
50, 32.9911777579949685, 4304
51, 33.6688907891029388, 4323
52, 34.3466038202109161, 4149
53, 35.0243168513188934, 4261
54, 35.7020298824268707, 4175
55, 36.3797429135348480, 4136
56, 37.0574559446428253, 4120
57, 37.7351689757508026, 4121
58, 38.4128820068587800, 3950
59, 39.0905950379667573, 3995
60, 39.7683080690747275, 4120
61, 40.4460211001827048, 3997
62, 41.1237341312906821, 3988
63, 41.8014471623986594, 3881
64, 42.4791601935066367, 3988
65, 43.1568732246146141, 3911
66, 43.8345862557225914, 3944
67, 44.5122992868305687, 3903
68, 45.1900123179385460, 3882
69, 45.8677253490465162, 3810
70, 46.5454383801544935, 3880
71, 47.2231514112624708, 3894
72, 47.9008644423704482, 3705
73, 48.5785774734784255, 3829
74, 49.2562905045864028, 3756
75, 49.9340035356943801, 3789
76, 50.6117165668023574, 3887
77, 51.2894295979103347, 3835
78, 51.9671426290183049, 3812
79, 52.6448556601262823, 3973
80, 53.3225686912342596, 3958
81, 54.0002817223422369, 3819
82, 54.6779947534502142, 3794
83, 55.3557077845581915, 3861
84, 56.0334208156661688, 3846
85, 56.7111338467741461, 3793
86, 57.3888468778821235, 3919
87, 58.0665599089900937, 3943
88, 58.7442729400980710, 4527
89, 59.4219859712060483, 4286
90, 60.0996990023140256, 3861
91, 60.7774120334220029, 3914
92, 61.4551250645299802, 3913
93, 62.1328380956379576, 4308
94, 62.8105511267459349, 4730
95, 63.4882641578539051, 4385
96, 64.1659771889618895, 4033
97, 64.8436902200698597, 4106
98, 65.5214032511778441, 4171
99, 66.1991162822858143, 4238
100, 66.8768293133937988, 4258
101, 67.5545423445017690, 4161
102, 68.2322553756097392, 4332
103, 68.9099684067177236, 4426
104, 69.5876814378256938, 4422
105, 70.2653944689336782, 4496
106, 70.9431075000416484, 4504
107, 71.6208205311496329, 4990
108, 72.2985335622576031, 5852
109, 72.9762465933655875, 4986
110, 73.6539596244735577, 7186
111, 74.3316726555815279, 12450
112, 75.0093856866895123, 6675
113, 75.6870987177974825, 6086
114, 76.3648117489054670, 14200
115, 77.0425247800134372, 9617
116, 77.7202378111214216, 4504
117, 78.3979508422293918, 4433
118, 79.0756638733373762, 4595
119, 79.7533769044453464, 4460
120, 80.4310899355533166, 4685
121, 81.1088029666613011, 4651
122, 81.7865159977692713, 4376
123, 82.4642290288772557, 4654
124, 83.1419420599852259, 5747
125, 83.8196550910932103, 6529
126, 84.4973681222011805, 5806
127, 85.1750811533091650, 4855
128, 85.8527941844171352, 5896
129, 86.5305072155251054, 8939
130, 87.2082202466330898, 7033
131, 87.8859332777410600, 4562
132, 88.5636463088490444, 5120
133, 89.2413593399570146, 7242
134, 89.9190723710649991, 5893
135, 90.5967854021729693, 4462
136, 91.2744984332809537, 5073
137, 91.9522114643889239, 7511
138, 92.6299244954968941, 7955
139, 93.3076375266048785, 5983
140, 93.9853505577128487, 4854
141, 94.6630635888208332, 4642
142, 95.3407766199288034, 4359
143, 96.0184896510367878, 4430
144, 96.6962026821447580, 4386
145, 97.3739157132527424, 4558
146, 98.0516287443607126, 4718
147, 98.7293417754686828, 5072
148, 99.4070548065766673, 4831
149, 100.0847678376846375, 4460
150, 100.7624808687926219, 4407
151, 101.4401938999005921, 4389
152, 102.1179069310085765, 4572
153, 102.7956199621165467, 4527
154, 103.4733329932245312, 4680
155, 104.1510460243325014, 4991
156, 104.8287590554404716, 5356
157, 105.5064720865484560, 4998
158, 106.1841851176564262, 4660
159, 106.8618981487644106, 4564
160, 107.5396111798723808, 4822
161, 108.2173242109803653, 4917
162, 108.8950372420883355, 4832
163, 109.5727502731963199, 4760
164, 110.2504633043042901, 4886
165, 110.9281763354122603, 4815
166, 111.6058893665202447, 4734
167, 112.2836023976282149, 4890
168, 112.9613154287361994, 4869
169, 113.6390284598441696, 4826
170, 114.3167414909521540, 5097
171, 114.9944545220601242, 5117
172, 115.6721675531681086, 4838
173, 116.3498805842760788, 4750
174, 117.0275936153840490, 4678
175, 117.7053066464920335, 4864
176, 118.3830196776000037, 4852
177, 119.0607327087079881, 4857
178, 119.7384457398159583, 4891
179, 120.4161587709239427, 4858
180, 121.0938718020319129, 4872
181, 121.7715848331398973, 5001
182, 122.4492978642478676, 4872
183, 123.1270108953558378, 5023
184, 123.8047239264638222, 5012
185, 124.4824369575717924, 5046
186, 125.1601499886797768, 5000
187, 125.8378630197877470, 5090
188, 126.5155760508957314, 5040
189, 127.1932890820037017, 5134
190, 127.8710021131116719, 5639
191, 128.5487151442196705, 7185
192, 129.2264281753276407, 5642
193, 129.9041412064356109, 5075
194, 130.5818542375435811, 5196
195, 131.2595672686515513, 5241
196, 131.9372802997595500, 5196
197, 132.6149933308675202, 5235
198, 133.2927063619754904, 5100
199, 133.9704193930834606, 5092
200, 134.6481324241914592, 5050
201, 135.3258454552994294, 5297
202, 136.0035584864073996, 5223
203, 136.6812715175153699, 5257
204, 137.3589845486233401, 5331
205, 138.0366975797313387, 5210
206, 138.7144106108393089, 5247
207, 139.3921236419472791, 5386
208, 140.0698366730552493, 5183
209, 140.7475497041632480, 5363
210, 141.4252627352712182, 5148
211, 142.1029757663791884, 5109
212, 142.7806887974871586, 5514
213, 143.4584018285951288, 5782
214, 144.1361148597031274, 5335
215, 144.8138278908110976, 5380
216, 145.4915409219190678, 5212
217, 146.1692539530270381, 5126
218, 146.8469669841350367, 5165
219, 147.5246800152430069, 5166
220, 148.2023930463509771, 5235
221, 148.8801060774589473, 5022
222, 149.5578191085669175, 5315
223, 150.2355321396749162, 5293
224, 150.9132451707828864, 5242
225, 151.5909582018908566, 5168
226, 152.2686712329988268, 5188
227, 152.9463842641068254, 5506
228, 153.6240972952147956, 6057
229, 154.3018103263227658, 5293
230, 154.9795233574307360, 5053
231, 155.6572363885387063, 5051
232, 156.3349494196467049, 5241
233, 157.0126624507546751, 5175
234, 157.6903754818626453, 5262
235, 158.3680885129706155, 5138
236, 159.0458015440786141, 5098
237, 159.7235145751865844, 5113
238, 160.4012276062945546, 5076
239, 161.0789406374025248, 5170
240, 161.7566536685104950, 4937
241, 162.4343666996184936, 5314
242, 163.1120797307264638, 5187
243, 163.7897927618344340, 5027
244, 164.4675057929424042, 4927
245, 165.1452188240504029, 5010
246, 165.8229318551583731, 5089
247, 166.5006448862663433, 4935
248, 167.1783579173743135, 5102
249, 167.8560709484822837, 5033
250, 168.5337839795902823, 5107
251, 169.2114970106982526, 4950
252, 169.8892100418062228, 5094
253, 170.5669230729141930, 4890
254, 171.2446361040221916, 5015
255, 171.9223491351301618, 4877
256, 172.6000621662381320, 5007
257, 173.2777751973461022, 5015
258, 173.9554882284540724, 4952
259, 174.6332012595620711, 4961
260, 175.3109142906700413, 4929
261, 175.9886273217780115, 4981
262, 176.6663403528859817, 4890
263, 177.3440533839939803, 4884
264, 178.0217664151019505, 4993
265, 178.6994794462099208, 4930
266, 179.3771924773178910, 5034
267, 180.0549055084258612, 5001
268, 180.7326185395338598, 4849
269, 181.4103315706418300, 4878
270, 182.0880446017498002, 4877
271, 182.7657576328577704, 4922
272, 183.4434706639657691, 5094
273, 184.1211836950737393, 4987
274, 184.7988967261817095, 6547
275, 185.4766097572896797, 8417
276, 186.1543227883976499, 6304
277, 186.8320358195056485, 4901
278, 187.5097488506136187, 4903
279, 188.1874618817215890, 4829
280, 188.8651749128295592, 4810
281, 189.5428879439375578, 4724
282, 190.2206009750455280, 4808
283, 190.8983140061534982, 4817
284, 191.5760270372614684, 4703
285, 192.2537400683694386, 4665
286, 192.9314530994774373, 4615
287, 193.6091661305854075, 4690
288, 194.2868791616933777, 4718
289, 194.9645921928013479, 4568
290, 195.6423052239093465, 4652
291, 196.3200182550173167, 4685
292, 196.9977312861252869, 4725
293, 197.6754443172332572, 4743
294, 198.3531573483412274, 4639
295, 199.0308703794492260, 4819
296, 199.7085834105571962, 4602
297, 200.3862964416651664, 4659
298, 201.0640094727731366, 4538
299, 201.7417225038811353, 4588
300, 202.4194355349891055, 4478
301, 203.0971485660970757, 4537
302, 203.7748615972050459, 4619
303, 204.4525746283130161, 4666
304, 205.1302876594210147, 4643
305, 205.8080006905289849, 4523
306, 206.4857137216369551, 4280
307, 207.1634267527449254, 4300
308, 207.8411397838529240, 4544
309, 208.5188528149608942, 6787
310, 209.1965658460688644, 6181
311, 209.8742788771768346, 4542
312, 210.5519919082848048, 4259
313, 211.2297049393928035, 4354
314, 211.9074179705007737, 4409
315, 212.5851310016087439, 4192
316, 213.2628440327167141, 4251
317, 213.9405570638247127, 4272
318, 214.6182700949326829, 4239
319, 215.2959831260406531, 4423
320, 215.9736961571486233, 4396
321, 216.6514091882565936, 4238
322, 217.3291222193645922, 4255
323, 218.0068352504725624, 4368
324, 218.6845482815805326, 4312
325, 219.3622613126885028, 4271
326, 220.0399743437965014, 4261
327, 220.7176873749044717, 4097
328, 221.3954004060124419, 4172
329, 222.0731134371204121, 4202
330, 222.7508264682283823, 4192
331, 223.4285394993363809, 4094
332, 224.1062525304443511, 4180
333, 224.7839655615523213, 4155
334, 225.4616785926602915, 4186
335, 226.1393916237682902, 4100
336, 226.8171046548762604, 4068
337, 227.4948176859842306, 4027
338, 228.1725307170922008, 3955
339, 228.8502437482001710, 4027
340, 229.5279567793081696, 4039
341, 230.2056698104161399, 4040
342, 230.8833828415241101, 4080
343, 231.5610958726320803, 3964
344, 232.2388089037400789, 4124
345, 232.9165219348480491, 4063
346, 233.5942349659560193, 3980
347, 234.2719479970639895, 3969
348, 234.9496610281719597, 4141
349, 235.6273740592799584, 4327
350, 236.3050870903879286, 4079
351, 236.9828001214958988, 5063
352, 237.6605131526038690, 20369
353, 238.3382261837118676, 31680
354, 239.0159392148198378, 9470
355, 239.6936522459278081, 4265
356, 240.3713652770357783, 6605
357, 241.0490783081437485, 7040
358, 241.7267913392517471, 6837
359, 242.4045043703597173, 4154
360, 243.0822174014676875, 3487
361, 243.7599304325756577, 3597
362, 244.4376434636836564, 3535
363, 245.1153564947916266, 3611
364, 245.7930695258995968, 3557
365, 246.4707825570075670, 3541
366, 247.1484955881155372, 3495
367, 247.8262086192235358, 3450
368, 248.5039216503315060, 3554
369, 249.1816346814394763, 3495
370, 249.8593477125474465, 3424
371, 250.5370607436554451, 3361
372, 251.2147737747634153, 3347
373, 251.8924868058713855, 3536
374, 252.5701998369793557, 3536
375, 253.2479128680873259, 3277
376, 253.9256258991953246, 3373
377, 254.6033389303032948, 3415
378, 255.2810519614112650, 3472
379, 255.9587649925192636, 3494
380, 256.6364780236272054, 3364
381, 257.3141910547352040, 3469
382, 257.9919040858432027, 3440
383, 258.6696171169511445, 3533
384, 259.3473301480591431, 3311
385, 260.0250431791670849, 3286
386, 260.7027562102750835, 3155
387, 261.3804692413830821, 3261
388, 262.0581822724910239, 3119
389, 262.7358953035990226, 3231
390, 263.4136083347069643, 3181
391, 264.0913213658149630, 3248
392, 264.7690343969229616, 3319
393, 265.4467474280309034, 3154
394, 266.1244604591389020, 3177
395, 266.8021734902468438, 3113
396, 267.4798865213548424, 3172
397, 268.1575995524628411, 3268
398, 268.8353125835707829, 3745
399, 269.5130256146787815, 4976
400, 270.1907386457867801, 4745
401, 270.8684516768947219, 3515
402, 271.5461647080027205, 3235
403, 272.2238777391106623, 3068
404, 272.9015907702186610, 3130
405, 273.5793038013266596, 3151
406, 274.2570168324346014, 3199
407, 274.9347298635426000, 3135
408, 275.6124428946505418, 3041
409, 276.2901559257585404, 3562
410, 276.9678689568665391, 4107
411, 277.6455819879744809, 3461
412, 278.3232950190824795, 3158
413, 279.0010080501904213, 3055
414, 279.6787210812984199, 2953
415, 280.3564341124064185, 2986
416, 281.0341471435143603, 3071
417, 281.7118601746223590, 2967
418, 282.3895732057303576, 2854
419, 283.0672862368382994, 2991
420, 283.7449992679462980, 2950
421, 284.4227122990542398, 2872
422, 285.1004253301622384, 2924
423, 285.7781383612702371, 2839
424, 286.4558513923781788, 2950
425, 287.1335644234861775, 2981
426, 287.8112774545941193, 3068
427, 288.4889904857021179, 2822
428, 289.1667035168101165, 2828
429, 289.8444165479180583, 2854
430, 290.5221295790260569, 2857
431, 291.1998426101339987, 2817
432, 291.8775556412419974, 2756
433, 292.5552686723499960, 2808
434, 293.2329817034579378, 2810
435, 293.9106947345659364, 4403
436, 294.5884077656739350, 9248
437, 295.2661207967818768, 7366
438, 295.9438338278898755, 3065
439, 296.6215468589978173, 2732
440, 297.2992598901058159, 2753
441, 297.9769729212138145, 2731
442, 298.6546859523217563, 2848
443, 299.3323989834297549, 4191
444, 300.0101120145376967, 4125
445, 300.6878250456456954, 2937
446, 301.3655380767536940, 2698
447, 302.0432511078616358, 2758
448, 302.7209641389696344, 2683
449, 303.3986771700775762, 2585
450, 304.0763902011855748, 2653
451, 304.7541032322935735, 2640
452, 305.4318162634015152, 2692
453, 306.1095292945095139, 2532
454, 306.7872423256175125, 2616
455, 307.4649553567254543, 2556
456, 308.1426683878334529, 2623
457, 308.8203814189413947, 2562
458, 309.4980944500493933, 2586
459, 310.1758074811573920, 2583
460, 310.8535205122653338, 2616
461, 311.5312335433733324, 2483
462, 312.2089465744812742, 2497
463, 312.8866596055892728, 2559
464, 313.5643726366972714, 2543
465, 314.2420856678052132, 2536
466, 314.9197986989132119, 2391
467, 315.5975117300211537, 2514
468, 316.2752247611291523, 2470
469, 316.9529377922371509, 2427
470, 317.6306508233450927, 2534
471, 318.3083638544530913, 2463
472, 318.9860768855610900, 2547
473, 319.6637899166690318, 2484
474, 320.3415029477770304, 2499
475, 321.0192159788849722, 2539
476, 321.6969290099929708, 2494
477, 322.3746420411009694, 2374
478, 323.0523550722089112, 2520
479, 323.7300681033169099, 2499
480, 324.4077811344248516, 2425
481, 325.0854941655328503, 2379
482, 325.7632071966408489, 2409
483, 326.4409202277487907, 2571
484, 327.1186332588567893, 3367
485, 327.7963462899647311, 3787
486, 328.4740593210727297, 2834
487, 329.1517723521807284, 2404
488, 329.8294853832886702, 2470
489, 330.5071984143966688, 2684
490, 331.1849114455046674, 4051
491, 331.8626244766126092, 8710
492, 332.5403375077206078, 2610
493, 333.2180505388285496, 2434
494, 333.8957635699365483, 2356
495, 334.5734766010445469, 2309
496, 335.2511896321524887, 2281
497, 335.9289026632604873, 2251
498, 336.6066156943684291, 2417
499, 337.2843287254764277, 4537
500, 337.9620417565844264, 8025
501, 338.6397547876923682, 4642
502, 339.3174678188003668, 2400
503, 339.9951808499083086, 2348
504, 340.6728938810163072, 2369
505, 341.3506069121243058, 2296
506, 342.0283199432322476, 2217
507, 342.7060329743402463, 2268
508, 343.3837460054482449, 2190
509, 344.0614590365561867, 2202
510, 344.7391720676641853, 2149
511, 345.4168850987721271, 2200
512, 346.0945981298801257, 2173
513, 346.7723111609881244, 2158
514, 347.4500241920960661, 2238
515, 348.1277372232040648, 2109
516, 348.8054502543120066, 2200
517, 349.4831632854200052, 2177
518, 350.1608763165280038, 2471
519, 350.8385893476359456, 5981
520, 351.5163023787439442, 14014
521, 352.1940154098519429, 8458
522, 352.8717284409598847, 2570
523, 353.5494414720678833, 2143
524, 354.2271545031758251, 2052
525, 354.9048675342838237, 2007
526, 355.5825805653918223, 2001
527, 356.2602935964997641, 1999
528, 356.9380066276077628, 2037
529, 357.6157196587157046, 2030
530, 358.2934326898237032, 2050
531, 358.9711457209317018, 2031
532, 359.6488587520396436, 2011
533, 360.3265717831476422, 1969
534, 361.0042848142555840, 1980
535, 361.6819978453635827, 2008
536, 362.3597108764715813, 2017
537, 363.0374239075795231, 1947
538, 363.7151369386875217, 1919
539, 364.3928499697955203, 2000
540, 365.0705630009034621, 1949
541, 365.7482760320114608, 1965
542, 366.4259890631194025, 1929
543, 367.1037020942274012, 2003
544, 367.7814151253353998, 1970
545, 368.4591281564433416, 1928
546, 369.1368411875513402, 1967
547, 369.8145542186592820, 1938
548, 370.4922672497672806, 1982
549, 371.1699802808752793, 1901
550, 371.8476933119832211, 1913
551, 372.5254063430912197, 1876
552, 373.2031193741991615, 1910
553, 373.8808324053071601, 1902
554, 374.5585454364151587, 1869
555, 375.2362584675231005, 1905
556, 375.9139714986310992, 1948
557, 376.5916845297390978, 1920
558, 377.2693975608470396, 1824
559, 377.9471105919550382, 1887
560, 378.6248236230629800, 1868
561, 379.3025366541709786, 1897
562, 379.9802496852789773, 1935
563, 380.6579627163869191, 1894
564, 381.3356757474949177, 1780
565, 382.0133887786028595, 1872
566, 382.6911018097108581, 1828
567, 383.3688148408188567, 1884
568, 384.0465278719267985, 1924
569, 384.7242409030347972, 1814
570, 385.4019539341427389, 1847
571, 386.0796669652507376, 1822
572, 386.7573799963587362, 1992
573, 387.4350930274666780, 1902
574, 388.1128060585746766, 1848
575, 388.7905190896826753, 1954
576, 389.4682321207906170, 1826
577, 390.1459451518986157, 1840
578, 390.8236581830065575, 1729
579, 391.5013712141145561, 1734
580, 392.1790842452225547, 1787
581, 392.8567972763304965, 1766
582, 393.5345103074384951, 1774
583, 394.2122233385464369, 1787
584, 394.8899363696544356, 1723
585, 395.5676494007624342, 1727
586, 396.2453624318703760, 1769
587, 396.9230754629783746, 1657
588, 397.6007884940863164, 1705
589, 398.2785015251943150, 1798
590, 398.9562145563023137, 1769
591, 399.6339275874102555, 1759
592, 400.3116406185182541, 1694
593, 400.9893536496262527, 1840
594, 401.6670666807341945, 1765
595, 402.3447797118421931, 1791
596, 403.0224927429501349, 1639
597, 403.7002057740581336, 1712
598, 404.3779188051661322, 1826
599, 405.0556318362740740, 1768
600, 405.7333448673820726, 1774
601, 406.4110578984900144, 1703
602, 407.0887709295980130, 1685
603, 407.7664839607060117, 1775
604, 408.4441969918139534, 1873
605, 409.1219100229219521, 2462
606, 409.7996230540298939, 2171
607, 410.4773360851378925, 1698
608, 411.1550491162458911, 1626
609, 411.8327621473538329, 1567
610, 412.5104751784618315, 1616
611, 413.1881882095698302, 1639
612, 413.8659012406777720, 1540
613, 414.5436142717857706, 1634
614, 415.2213273028937124, 1571
615, 415.8990403340017110, 1715
616, 416.5767533651097096, 1572
617, 417.2544663962176514, 1611
618, 417.9321794273256501, 1641
619, 418.6098924584335919, 1650
620, 419.2876054895415905, 1639
621, 419.9653185206495891, 1620
622, 420.6430315517575309, 1517
623, 421.3207445828655295, 1567
624, 421.9984576139734713, 1581
625, 422.6761706450814700, 1570
